# NA62-dump projecton with 1e18 POT: 10.1007/JHEP05(2019)213 (1904.02091) [Erratum: 10.1007/JHEP10(2020)046]
# mass [GeV] photon coupling [1/GeV]
0.021163660077488673 0.002313853791768394
0.02210161889887283 0.0021898161618457528
0.022991093811952214 0.0020137691922300174
0.023760903297231153 0.001776289946999489
0.02511429978300487 0.0014803247704336755
0.02692207499878288 0.0014176773024327757
0.028115467684286233 0.0013307788051757077
0.02919000796524292 0.0012000350551441407
0.03066726906078787 0.0010275706640469303
0.034113024211827235 0.0008606242760670815
0.03562505020824068 0.0008107598903251812
0.03718542097239352 0.0007461375824153292
0.03836436334745877 0.0006996318889585882
0.03994534049316483 0.0006101441078473584
0.04171619094793639 0.0005704128278835972
0.04356565535814417 0.0005319108862043414
0.045497865340923344 0.0004877311704168364
0.04751712607540332 0.0004344094871415066
0.04962583084510015 0.00038830078147411627
0.05182643115354296 0.0003587828691427755
0.054123938106876934 0.0003357619414416585
0.05652405831544198 0.0003099217063931464
0.05903288394104677 0.0002750556752990789
0.061652108570808536 0.0002480014849734411
0.06438657969316001 0.00022705525311971872
0.06724125779516982 0.00021129797532467497
0.07022299392178508 0.00019523549126851175
0.07305153785965693 0.00017353906198097163
0.07599417441169136 0.00015392199947187576
0.0793646436775435 0.00014113747039664324
0.08288356303705259 0.00013107513003414366
0.08655837663456535 0.00012191653900825795
0.09022035590607687 0.00011083432697421133
0.09367071575908027 0.0000975332919263259
0.09686905806692576 0.00008747249783621526
0.1033287933482646 0.00007787113238463797
0.10796707766968605 0.0000722092185909138
0.11275610620993558 0.00006590846510658506
0.11729915732362792 0.00005792727423058693
0.12202403225804163 0.000051434444836817856
0.1274372134722877 0.000046707656228911975
0.13308687273068312 0.00004362164412637002
0.13898901267143382 0.00004014152219085564
0.14487209464472997 0.0000357431107744643
0.15100532615652884 0.00003158414000198878
0.15770731750647915 0.000028102498855030865
0.16470256060366592 0.000025663444411918207
0.17200765374952007 0.00002349590716158792
0.17964106210451794 0.000020991318943648418
0.18761322819409296 0.000018753711783231037
0.19593947937295267 0.000016729015630978078
0.20463463471611376 0.0000149686370153639
0.21371458430960194 0.000013461971321419313
0.22319842928332864 0.000012051524402570062
0.23310383062295567 0.000010755895832610395
0.24344858383289383 0.0000096093518924053
0.254251529935941 0.000008615724058746472
0.2650126115521566 0.00000769518404681958
0.2756864462499635 0.000006858493475853792
0.2873566760190362 0.0000060839899032163085
0.3001111790450181 0.000005396791588932847
0.31343273868294386 0.000004772589582675498
0.3267012841637488 0.000004227598880656002
0.3391967715047235 0.0000037065976278493134
0.35147568495677384 0.0000032674003224180382
0.3641977595530846 0.0000028910342929814853
0.3781249189239603 0.000002551708326342116
0.3910393994424314 0.0000022671992926974
0.40122639572274205 0.0000019968257666963112
0.40827731867351613 0.0000017310369884860988
0.41336488883460876 0.0000015092642940130602
0.41666768634152634 0.0000013860423544229156
0.4141695505326378 0.0000012373304590984018
0.40464318992237774 0.000001077254398410731
0.3748048833501361 8.974809923835842e-7
0.35869636369035335 8.632033065778114e-7
0.34466850384448156 8.32070701366513e-7
0.32917092613698906 8.059952130157819e-7
0.31522332031469363 7.933753391457174e-7
0.30186519232238224 7.849454302499785e-7
0.2890706811753456 7.833664030948044e-7
0.27681804831629286 7.829874084430477e-7
0.26508422898933215 7.842064825167577e-7
0.25384588163027627 7.914580102586902e-7
0.24308398830941183 7.98776592603923e-7
0.23277776772692574 8.08220845800928e-7
0.22290795080220507 8.19864406692033e-7
0.21345661579299857 8.316757094954233e-7
0.20440530369396506 8.466739073635911e-7
0.19573760339277962 8.628220621499696e-7
0.18743726499624114 8.801753741800016e-7
0.17948863687920108 8.992522765453843e-7
0.17187682744520819 9.201491695880219e-7
0.16458757513123165 9.429730726062209e-7
0.15760753693515175 9.658704749768981e-7
0.1509229888895179 9.928614846337307e-7
0.1445223835121243 0.0000010174889852442324
0.13839260350788596 0.0000010475236812758017
0.13252301106771328 0.0000010767964694286336
0.12690217307983043 0.0000011085818303673478
0.1215197983609052 0.0000011407236250991208
0.11636565121767567 0.0000011743960164790195
0.11142983381482838 0.0000012121488945147666
0.10670332290327157 0.0000012517535260241682
0.10217729605089577 0.0000012926521626216329
0.09784310259999923 0.0000013369306841177928
0.09369275853243768 0.000001382725922579716
0.08971842040689137 0.0000014308192422665598
0.08591258319571189 0.0000014820960374573202
0.08226818882773358 0.0000015352104580079898
0.07877842831292754 0.000001589417684529754
0.07543670106133342 0.0000016455389309774796
0.07223676371516485 0.000001702773288540545
0.06917259857957274 0.0000017611001036265255
0.06623834408012103 0.0000018232833383399271
0.06342859036623565 0.0000018866999178937994
0.060738023145345064 0.0000019523222229527196
0.05816155758872711 0.0000020212573793223495
0.05569446747325046 0.000002089427849095026
0.05333197277325391 0.000002162101341265939
0.051069666827142354 0.0000022384436541766307
0.04890330191019666 0.0000023186635823203442
0.04682881034346699 0.0000024029833871313503
0.044842274446810604 0.0000024929105904575485
0.04293996692036501 0.000002588841987234726
0.04111838000270431 0.0000026870944457429806
0.03937402855346514 0.000002791921644833072
0.037703677149419 0.0000029008382951467755
0.036104150412927014 0.000003017079272977629
0.03457244683538349 0.000003141180041095739
0.03310569204538089 0.0000032737223554107538
0.03170111757828883 0.000003417080570766411
0.030356195663415384 0.0000035594490471598054
0.02906834667745458 0.000003705858975724212
0.027835134149534486 0.000003858291147309449
0.025523610964258273 0.000004154591405411326
0.024440855686170167 0.0000043122676257800114
0.02340403274084911 0.000004475928018367726
0.022411126377782635 0.000004660035247533312
0.021460375839741905 0.000004844299095865582